Wavelength
7.8636
8.0485
8.2286
8.4043
8.5758
8.7436
8.9078
9.0686
9.2262
9.3809
9.5328
9.682
9.8286
9.9728
10.1148
10.2545
10.3922
10.5279
10.6616
10.7935
10.9237
11.0521
11.179
11.3042
11.428
11.5503
11.6711
11.7907
11.9089
12.0258
12.1415
12.256
12.3693
12.4816
12.5927
12.7028
12.8118
12.9199
13.0269
13.133
13.2382
13.3425
13.4459
13.5485
10.9929
11.3704
11.7357
12.0899
12.4339
12.7687
13.0948
13.4131
13.7239
14.0278
14.3252
14.6166
14.9022
15.1825
15.4576
15.728
15.9937
16.2551
16.5123
16.7656
17.0151
17.261
17.5034
17.7425
17.9784
18.2113
18.4412
18.6682
18.8925
19.1142
19.3334
19.55
19.7643
19.9763
20.1861
20.3937
20.5992
20.8026
21.0041
21.2037
21.4014
21.5973
21.7914
21.9838
22.1745
22.3636
22.5511
22.7371
22.9216